n     y(n)
0     20.000000
1     19.500000
2     18.500000
3     17.000000
4     15.000000
5     12.500000
6     9.500000
7     6.000000
8     2.000000
9     -3.500000
10    -9.500000
11    -16.000000
12    -23.000000
13    -30.500000
14    -38.500000
15    -47.000000
