t     y(t)
0.00 0.00
5.00 0.0054
10.00 0.0109
15.00 0.0163
20.00 0.0218
25.00 0.0273
30.00 0.0327
35.00 0.0382
40.00 0.0436
45.00 0.0491
50.00 0.0545
55.00 0.0599
60.00 0.0653
65.00 0.0707
70.00 0.0760
75.00 0.0814
80.00 0.0867
85.00 0.0920
90.00 0.0972
95.00 0.1025
100.00 0.1077
